Wavelength  (nm)	Reflectance (%)	Transmittance (%)	Reflectance Phase (deg)	Transmittance Phase (deg)
 400	 58.9674158914513	 41.0325841085488	-99.8280527604535	 171.860676150644
 400.2	 58.1561446168274	 41.8438553831727	-96.9206156492377	 173.437979023413
 400.4	 57.3439236082605	 42.6560763917395	-93.9439357437949	 175.039977837286
 400.6	 56.5336451967948	 43.4663548032052	-90.8972334023989	 176.666445114345
 400.8	 55.7284216524211	 44.271578347579	-87.7799994439542	 178.317045441747
 401	 54.9315716438671	 45.068428356133	-84.5920343624663	 179.991329387688
 401.2	 54.1466011886338	 45.8533988113663	-81.3334891164685	-178.311271859368
 401.4	 53.3771787902962	 46.6228212097038	-78.0049067260542	-176.591450938822
 401.6	 52.6271046153992	 47.3728953846009	-74.6072636798218	-174.850027661214
 401.8	 51.9002737525011	 48.099726247499	-71.1420099111283	-173.0879510579
 402	 51.200633816858	 48.7993661831421	-67.6111058619623	-171.306299959228
 402.2	 50.5321374085958	 49.4678625914043	-64.0170549334279	-169.506281942172
 402.4	 49.8986901894803	 50.1013098105198	-60.3629294488975	-167.689230515636
 402.6	 49.3040956001805	 50.6959043998195	-56.6523881581606	-165.856600447257
 402.8	 48.7519974804955	 51.2480025195046	-52.8896833182042	-164.009961178859
 403	 48.2458220623336	 51.7541779376665	-49.0796555264345	-162.150988327642
 403.2	 47.7887209623066	 52.2112790376934	-45.2277147762243	-160.281453325006
 403.4	 47.3835168920963	 52.6164831079037	-41.3398066615423	-158.403211302356
 403.6	 47.0326538180423	 52.9673461819578	-37.4223632697901	-156.518187390766
 403.8	 46.7381532290561	 53.261846770944	-33.4822390423075	-154.628361656071
 404	 46.5015780122937	 53.4984219877064	-29.5266327026685	-152.735752939874
 404.2	 46.3240051938683	 53.6759948061318	-25.5629971884987	-150.842401917465
 404.4	 46.2060084886491	 53.793991511351	-21.5989402964951	-148.950353713204
 404.6	 46.1476512361961	 53.8523487638039	-17.6421193846404	-147.061640430915
 404.8	 46.1484866609147	 53.8515133390854	-13.7001511294056	-145.17824919561
 405	 46.2075779503627	 53.7924220496373	-9.78047125311565	-143.302135106534
 405.2	 46.3235222393357	 53.6764777606645	-5.89023447312752	-141.435205582426
 405.4	 46.4944763445212	 53.5055236554789	-2.03625797624704	-139.579276511216
 405.6	 46.7181997232865	 53.2818002767134	 1.77507493907562	-137.736074132371
 405.8	 46.9921003089227	 53.0078996910773	 5.53787997568065	-135.907223837765
 406	 47.3132847762916	 52.6867152237084	 9.24682167416832	-134.094240791756
 406.2	 47.678611589602	 52.321388410398	 12.8971475596951	-132.298522449445
 406.4	 48.0847452150339	 51.9152547849663	 16.4847069657447	-130.521342995718
 406.6	 48.5282099817715	 51.4717900182286	 20.00595556076	-128.763849675181
 406.8	 49.0054422325788	 50.9945577674212	 23.4579471081215	-127.027060936495
 407	 49.5128396041267	 50.4871603958732	 26.8383143268639	-125.311866275222
 407.2	 50.0468065019259	 49.9531934980741	 30.1452408945121	-123.619027628083
 407.4	 50.6037950696909	 49.3962049303092	 33.3774266634776	-121.949182148686
 407.6	 51.1803411846863	 48.8196588153138	 36.534048075819	-120.302846180224
 407.8	 51.7730952279409	 48.2269047720591	 39.6147155888955	-118.680420233822
 408	 52.3788475727983	 47.6211524272018	 42.6194296971475	-117.082194781153
 408.2	 52.9945489015486	 47.0054510984513	 45.5485368800285	-115.508356675761
 408.4	 53.6173255950295	 46.3826744049706	 48.4026865454699	-113.958996027934
 408.6	 54.2444905434826	 45.7555094565174	 51.1827897886198	-112.434113371915
 408.8	 54.8735497999626	 45.1264502000375	 53.8899805584365	-110.933626980536
 409	 55.5022055428169	 44.4977944571831	 56.5255796264752	-109.457380200084
 409.2	 56.1283558347781	 43.8716441652219	 59.0910615856105	-108.005148696446
 409.4	 56.7500916670311	 43.249908332969	 61.5880249715116	-106.576647521629
 409.6	 57.3656917613606	 42.6343082386394	 64.0181654942554	-105.171537927066
 409.8	 57.9736155761436	 42.0263844238563	 66.3832522885297	-103.789433866248
 410	 58.5724949261397	 41.4275050738603	 68.6851070345962	-102.429908143976
 410.2	 59.1611245849564	 40.8388754150436	 70.9255857647846	-101.092498182556
 410.4	 59.7384521953604	 40.2615478046396	 73.1065631480668	-99.7767113867478
 410.6	 60.3035677684482	 39.6964322315518	 75.229919034937	-98.4820300989952
 410.8	 60.8556930096848	 39.1443069903151	 77.2975270434097	-97.2079161446044
 411	 61.3941706692166	 38.6058293307834	 79.3112449721488	-95.9538149732044
 411.2	 61.9184540764153	 38.0815459235847	 81.2729068364279	-94.7191594080721
 411.4	 62.428096984848	 37.571903015152	 83.184316335313	-93.5033730189625
 411.6	 62.9227438239811	 37.0772561760188	 85.0472415728626	-92.3058731370616
 411.8	 63.4021204279507	 36.5978795720494	 86.8634108713526	-91.1260735327313
 412	 63.8660252895512	 36.1339747104488	 88.6345095298917	-89.9633867779887
 412.2	 64.3143213689444	 35.6856786310555	 90.3621773967101	-88.8172263163178
 412.4	 64.7469284712364	 35.2530715287636	 92.0480071377496	-87.6870082624897
 412.6	 65.1638161946082	 34.8361838053917	 93.6935430974952	-86.5721529547976
 412.8	 65.5649974408479	 34.4350025591521	 95.3002806603861	-85.4720862814661
 413	 65.950522472512	 34.0494775274879	 96.8696660324191	-84.3862408021363
 413.2	 66.3204734952661	 33.6795265047338	 98.4030963727627	-83.3140566843016
 413.4	 66.674959739889	 33.325040260111	 99.9019202143986	-82.2549824734029
 413.6	 67.01411301571	 32.9858869842899	 101.367438120973	-81.2084757140868
 413.8	 67.3380837056344	 32.6619162943656	 102.800903534314	-80.1740034388762
 414	 67.6470371721873	 32.3529628278128	 104.203523773492	-79.1510425392523
 414.2	 67.9411505439821	 32.0588494560179	 105.576461151908	-78.1390800329259
 414.4	 68.2206098525433	 31.7793901474566	 106.920834183876	-77.1376132398802
 414.6	 68.4856074903354	 31.5143925096646	 108.237718856438	-76.1461498786414
 414.8	 68.7363399620914	 31.2636600379086	 109.528149945906	-75.1642080931484
 415	 68.9730059029584	 31.0269940970416	 110.793122361898	-74.1913164195933
 415.2	 69.1958043385547	 30.8041956614453	 112.033592504405	-73.2270137016579
 415.4	 69.4049331636754	 30.5950668363246	 113.250479621895	-72.2708489617064
 415.6	 69.6005878180507	 30.3994121819493	 114.444667160505	-71.3223812346869
 415.8	 69.782960139228	 30.217039860772	 115.617004096187	-70.3811793707695
 416	 69.9522373742694	 30.0477626257305	 116.76830624319	-69.4468218120722
 416.2	 70.1086013335309	 29.891398666469	 117.899357533559	-68.5188963482241
 416.4	 70.2522276712854	 29.7477723287146	 119.010911263459	-67.5969998549648
 416.6	 70.3832852793738	 29.6167147206261	 120.103691303039	-66.6807380194842
 416.8	 70.501935781406	 29.498064218594	 121.178393267375	-65.769725055767
 417	 70.6083331162768	 29.3916668837231	 122.23568564667	-64.8635834128007
 417.2	 70.7026232009313	 29.2973767990686	 123.276210894449	-63.9619434781658
 417.4	 70.7849436633816	 29.2150563366184	 124.300586472961	-63.0644432792002
 417.6	 70.855423637976	 29.1445763620239	 125.309405855363	-62.170728183658
 417.8	 70.9141836158323	 29.0858163841676	 126.303239484575	-61.2804506015399
 418	 70.9613353441852	 29.0386646558148	 127.282635688961	-60.3932696895469
 418.2	 70.9969817691696	 29.0030182308304	 128.248121555164	-59.5088510594375
 418.4	 71.0212170172626	 28.9787829827373	 129.20020375861	-58.6268664913863
 418.6	 71.0341264112521	 28.9658735887479	 130.139369352296	-57.7469936533155
 418.8	 71.0357865171854	 28.9642134828146	 131.066086514572	-56.8689158270401
 419	 71.0262652192953	 28.9737347807047	 131.980805256702	-55.9923216419638
 419.2	 71.0056218203844	 28.9943781796156	 132.883958091011	-55.1169048169834
 419.4	 70.9739071656048	 29.0260928343952	 133.775960660459	-54.2423639111724
 419.6	 70.93116378798	 29.06883621202	 134.657212330497	-53.3684020837693
 419.8	 70.8774260743943	 29.1225739256057	 135.52809674404	-52.494726863933
 420	 70.8182247686898	 29.1817752313102	 136.356233301569	-51.6559739047825
 420.2	 70.7597743169802	 29.2402256830198	 137.115135826746	-50.8818950081832
 420.4	 70.6925473049486	 29.3074526950514	 137.86650392873	-50.1075119816113
 420.6	 70.6165526615361	 29.3834473384639	 138.610573921838	-49.3326248441245
 420.8	 70.5317945896364	 29.4682054103636	 139.347573396761	-48.5570357852288
 421	 70.4382727218382	 29.5617272781618	 140.077721432545	-47.7805490646892
 421.2	 70.3359822858003	 29.6640177141997	 140.801228791992	-47.0029709185384
 421.4	 70.2249142796021	 29.7750857203978	 141.518298100764	-46.2241094714473
 421.6	 70.1050556574978	 29.8949443425022	 142.229124010465	-45.4437746556315
 421.8	 69.9763895265804	 30.0236104734196	 142.933893345952	-44.6617781364739
 422	 69.8388953549369	 30.1611046450631	 143.632785237109	-43.8779332450443
 422.2	 69.6925491919411	 30.3074508080588	 144.325971235312	-43.0920549177173
 422.4	 69.5373239013986	 30.4626760986014	 145.013615414774	-42.3039596430877
 422.6	 69.3731894083134	 30.6268105916866	 145.695874458976	-41.5134654164009
 422.8	 69.2001129601056	 30.7998870398944	 146.372897732356	-40.7203917017238
 423	 69.0180594031523	 30.9819405968477	 147.044827337443	-39.9245594020892
 423.2	 68.8269914755737	 31.1730085244262	 147.711798157577	-39.1257908378692
 423.4	 68.6268701172202	 31.3731298827798	 148.373937885403	-38.3239097336323
 423.6	 68.4176547978498	 31.5823452021502	 149.031367037299	-37.518741213759
 423.8	 68.1993038645082	 31.8006961354918	 149.684198953892	-36.7101118070991
 424	 67.9717749091412	 32.0282250908588	 150.332539786863	-35.897849460962
 424.2	 67.7350251574762	 32.2649748425238	 150.976488472211	-35.0817835647496
 424.4	 67.4890118802066	 32.5109881197933	 151.616136690205	-34.2617449835389
 424.6	 67.2336928275013	 32.7663071724986	 152.251568812244	-33.43756610194
 424.8	 66.9690266878347	 33.0309733121652	 152.8828618349	-32.6090808785548
 425	 66.6949735720937	 33.3050264279063	 153.510085301443	-31.7761249113659
 425.2	 66.411495523866	 33.588504476134	 154.133301211206	-30.9385355143949
 425.4	 66.1185570567418	 33.8814429432581	 154.752563917177	-30.0961518059584
 425.6	 65.8161257193735	 34.1838742806265	 155.367920012303	-29.248814808855
 425.8	 65.5041726889296	 34.4958273110704	 155.979408205034	-28.3963675628084
 426	 65.1826733934485	 34.8173266065514	 156.587059184733	-27.5386552494756
 426.2	 64.8516081634456	 35.1483918365543	 157.190895477669	-26.6755253303278
 426.4	 64.5109629129475	 35.4890370870525	 157.790931294425	-25.806827697679
 426.6	 64.1607298499198	 35.8392701500802	 158.387172369656	-24.9324148391233
 426.8	 63.8009082158255	 36.1990917841745	 158.979615795288	-24.05214201561
 427	 63.4315050537759	 36.5684949462241	 159.568249848379	-23.1658674533456
 427.2	 63.0525360044498	 36.9474639955501	 160.153053815055	-22.2734525496805
 427.4	 62.6640261286171	 37.3359738713828	 160.733997812067	-21.3747620930822
 427.6	 62.266010754739	 37.733989245261	 161.311042607788	-20.4696644972379
 427.8	 61.8585363497199	 38.1414636502801	 161.884139444593	-19.5580320492793
 428	 61.4416614104432	 38.5583385895568	 162.453229864899	-18.6397411720319
 428.2	 61.0154573732558	 38.9845426267441	 163.0182455433	-17.7146727001266
 428.4	 60.5800095380569	 39.4199904619431	 163.579108127576	-16.7827121697136
 428.6	 60.1354180031042	 39.8645819968957	 164.135729091606	-15.8437501214157
 428.8	 59.6817986060864	 40.3182013939136	 164.688009603514	-14.8976824160649
 429	 59.2192838663988	 40.7807161336011	 165.235840412744	-13.9444105626233
 429.2	 58.7480239229515	 41.2519760770485	 165.779101760031	-12.983842057591
 429.4	 58.268187461182	 41.731812538818	 166.317663314636	-12.0158907350416
 429.6	 57.779962622302	 42.2200373776979	 166.85138414355	-11.0404771262926
 429.8	 57.2835578871437	 42.7164421128562	 167.380112717723	-10.0575288280647
 430	 56.7792029263144	 43.2207970736855	 167.903686960764	-9.06698087780899
 430.2	 56.267149407739	 43.732850592261	 168.421934345885	-8.06877613473205
 430.4	 55.7476717520435	 44.2523282479565	 168.934672047248	-7.06286566485159
 430.6	 55.2210678256725	 44.7789321743274	 169.441707152159	-6.04920912825656
 430.8	 54.687659561104	 45.312340438896	 169.942836940904	-5.02777516654709
 431	 54.1477934930814	 45.8522065069185	 170.437849241231	-3.99854178825734
 431.2	 53.6018411994209	 46.3981588005791	 170.926522864751	-2.96149674988357
 431.4	 53.0501996346832	 46.9498003653168	 171.408628132632	-1.91663792995485
 431.6	 52.4932913448721	 47.5067086551278	 171.883927498074	-.863973693421372
 431.8	 51.9315645513147	 48.0684354486853	 172.352176272996	 .196476756524375
 432	 51.3654930920386	 48.6345069079613	 172.813123466269	 1.26468304223402
 432.2	 50.7955762092974	 49.2044237907026	 173.26651274053	 2.34060329415649
 432.4	 50.2223381724133	 49.7776618275866	 173.712083494229	 3.42418385543371
 432.6	 49.6463277258363	 50.3536722741637	 174.14957207498	 4.51535901190314
 432.8	 49.0681173532612	 50.9318826467388	 174.578713129474	 5.61405075092219
 433	 48.4883023498085	 51.5116976501915	 174.999241094293	 6.72016855246742
 433.2	 47.9074996956761	 52.0925003043239	 175.410891830701	 7.83360921594251
 433.4	 47.3263467262877	 52.6736532737123	 175.813404405057	 8.95425672609379
 433.6	 46.7454995958176	 53.2545004041824	 176.206523014767	 10.0819821613392
 433.8	 46.1656315330335	 53.8343684669665	 176.589999057705	 11.2166436476894
 434	 45.5874308906616	 54.4125691093384	 176.963593340769	 12.3580863612616
 434.2	 45.0115989919168	 54.9884010080832	 177.327078420712	 13.506142582165
 434.4	 44.4388477804261	 55.5611522195738	 177.680241067538	 14.6606318022646
 434.6	 43.8698972824707	 56.1301027175293	 178.022884837784	 15.8213608890127
 434.8	 43.3054728932449	 56.6945271067551	 178.354832741658	 16.9881243071689
 435	 42.7463025016206	 57.2536974983794	 178.675929984646	 18.1607043998265
 435.2	 42.1931134706837	 57.8068865293164	 178.986046760583	 19.3388717296983
 435.4	 41.6466294939881	 58.3533705060118	 179.285081069657	 20.5223854811441
 435.6	 41.1075673500371	 58.8924326499629	 179.572961531186	 21.7109939228792
 435.8	 40.5766335828342	 59.4233664171658	 179.849650159846	 22.9044349292848
 436	 40.0545682758307	 59.9454317241693	-179.884817367138	 24.1024114599056
 436.2	 39.5419963812844	 60.4580036187156	-179.630438196478	 25.3046661905062
 436.4	 39.0395731416365	 60.9604268583635	-179.387134479106	 26.5109096479132
 436.6	 38.5479300786924	 61.4520699213076	-179.154785064893	 27.7208446313724
 436.8	 38.067671723484	 61.9323282765161	-178.933223521648	 28.9341670062661
 437	 37.5993724498814	 62.4006275501187	-178.722236442405	 30.1505665422633
 437.2	 37.142703872932	 62.857296127068	-178.521134914928	 31.3722873753446
 437.4	 36.6975269404244	 63.3024730595755	-178.32931510961	 32.6012407529298
 437.6	 36.2659791505744	 63.7340208494256	-178.147239355478	 33.8323633595151
 437.8	 35.8484944516093	 64.1515055483907	-177.974488719055	 35.0653238079215
 438	 35.4454623739739	 64.5545376260261	-177.81059325523	 36.2997892243468
 438.2	 35.0572260297228	 64.9427739702772	-177.655032853097	 37.535426275442
 438.4	 34.6840804101492	 65.3159195898508	-177.507238603676	 38.7719022010875
 438.6	 34.3262709978159	 65.6737290021841	-177.366594693095	 40.008885846148
 438.8	 33.9839927052561	 66.0160072947439	-177.232440814846	 41.2460486845028
 439	 33.657389148521	 66.342610851479	-177.104075084285	 42.4830658287374
 439.2	 33.3465522595568	 66.6534477404432	-176.980757428011	 43.7196170190689
 439.4	 33.051522237192	 66.9484777628081	-176.861713410434	 44.9553875853237
 439.6	 32.7722878323668	 67.2277121676333	-176.746138450077	 46.1900693761277
 439.8	 32.5087869592446	 67.4912130407554	-176.633202369308	 47.4233616498495
 440	 32.2609076200687	 67.7390923799314	-176.522054213562	 48.6549719223013
 440.2	 32.0284891281394	 67.9715108718607	-176.41182727003	 49.884616766698
 440.4	 31.8113236101497	 68.1886763898503	-176.301644211374	 51.1120225619273
 440.6	 31.6091577663727	 68.3908422336273	-176.190622287614	 52.3369261857503
 440.8	 31.421694864884	 68.578305135116	-176.0778784888	 53.5590756501582
 441	 31.2485969441526	 68.7514030558474	-175.962534602632	 54.7782306767122
 441.2	 31.0894871969521	 68.910512803048	-175.843722094601	 55.9941632103047
 441.4	 30.9439525076417	 69.0560474923582	-175.720586743426	 57.2066578703878
 441.6	 30.8115461144268	 69.1884538855732	-175.592292971306	 58.415512339292
 441.8	 30.6917903682153	 69.3082096317847	-175.458027816522	 59.6205376878265
 442	 30.5841795601157	 69.4158204398844	-175.317004504921	 60.8215586388786
 442.2	 30.4881827904317	 69.5118172095683	-175.168465586424	 62.0184137702253
 442.4	 30.4032468531658	 69.5967531468343	-175.011685612598	 63.2109556582212
 442.6	 30.3287991114927	 69.6712008885073	-174.845973341262	 64.3990509644306
 442.8	 30.2642503413745	 69.7357496586256	-174.670673463585	 65.5825804676245
 443	 30.2089975223859	 69.7910024776141	-174.485167858134	 66.7614390438882
 443.2	 30.1624265568805	 69.8375734431195	-174.288876384436	 67.9355355978085
 443.4	 30.123914900788	 69.8760850992121	-174.081257235801	 69.1047929479508
 443.6	 30.0928340915485	 69.9071659084515	-173.861806877156	 70.2691476699642
 443.8	 30.0685521609317	 69.9314478390684	-173.630059598601	 71.4285499007773
 444	 30.050435922694	 69.9495640773061	-173.385586719039	 72.5829631074073
 444.2	 30.0378531271935	 69.9621468728066	-173.127995476848	 73.7323638239203
 444.4	 30.0301744771448	 69.9698255228553	-172.856927646017	 74.8767413600732
 444.6	 30.0267755006679	 69.9732244993321	-172.572057916637	 76.0160974851061
 444.8	 30.0270382796116	 69.9729617203884	-172.273092078267	 77.1504460900801
 445	 30.0303530328285	 69.9696469671715	-171.959765043503	 78.279812832034
 445.2	 30.0361195556086	 69.9638804443915	-171.631838747298	 79.4042347631101
 445.4	 30.0437485178609	 69.9562514821391	-171.289099955313	 80.5237599476346
 445.6	 30.052662624841	 69.9473373751592	-170.931358011903	 81.6384470699796
 445.8	 30.0622976452757	 69.9377023547243	-170.55844255545	 82.7483650358443
 446	 30.072103312633	 69.9278966873671	-170.170201225706	 83.8535925694072
 446.2	 30.0815441060187	 69.9184558939813	-169.766497384709	 84.9542178085961
 446.4	 30.0900999177879	 69.9099000822121	-169.347207869751	 86.0503379005381
 446.6	 30.0972666154153	 69.9027333845848	-168.91222079392	 87.1420585990346
 446.8	 30.1025565055069	 69.8974434944931	-168.461433406887	 88.2294938657175
 447	 30.1054987080631	 69.894501291937	-167.994750025945	 89.3127654763436
 447.2	 30.1056394492218	 69.8943605507782	-167.512080044907	 90.3920026334965
 447.4	 30.1025422807454	 69.8974577192546	-167.01333602619	 91.4673415867708
 447.6	 30.0957882344665	 69.9042117655334	-166.498431879505	 92.5389252613486
 447.8	 30.0849759197929	 69.9150240802071	-165.967281128743	 93.6069028957026
 448	 30.0697215722019	 69.9302784277981	-165.419795267204	 94.6714296889941
 448.2	 30.0496590604314	 69.9503409395687	-164.855882199977	 95.7326664585928
 448.4	 30.0244398598166	 69.9755601401834	-164.275444771194	 96.7907793079954
 448.6	 29.9937329989366	 70.0062670010634	-163.678379372999	 97.8459393052864
 448.8	 29.9572249864152	 70.0427750135848	-163.064574632357	 98.8983221721647
 449	 29.9146197244002	 70.0853802755998	-162.433910171228	 99.9481079834424
 449.2	 29.865638414899	 70.1343615851011	-161.786255435294	 100.995480876814
 449.4	 29.8100194648068	 70.1899805351933	-161.121468586041	 102.040628772597
 449.6	 29.7475183951155	 70.2524816048845	-160.439395450924	 103.083743103064
 449.8	 29.67790775944	 70.32209224056	-159.739868526173	 104.125018550883
 450	 29.6009770766633	 70.3990229233367	-159.022706026873	 105.164652796136
 450.2	 29.5165327821546	 70.4834672178454	-158.287710979011	 106.202846271293
 450.4	 29.4243982016873	 70.5756017983127	-157.534670348308	 107.239801923477
 450.6	 29.3244135518558	 70.6755864481443	-156.76335420091	 108.27572498328
