Wavelength  (nm)	Reflectance (%)	Transmittance (%)	Reflectance Phase (deg)	Transmittance Phase (deg)
 400	 40.348455291277	 59.651544708723	 172.869577839072	 125.587942733463
 400.2	 40.2618605134725	 59.7381394865274	 173.0727531395	 127.014876738617
 400.4	 40.1803206463112	 59.8196793536888	 173.267361235827	 128.444137913916
 400.6	 40.1042773855145	 59.8957226144854	 173.453800734386	 129.875515071054
 400.8	 40.034142139594	 59.9658578604059	 173.632486397369	 131.308788206046
 401	 39.9702945559738	 60.0297054440262	 173.80384800882	 132.743729428553
 401.2	 39.9130811905394	 60.0869188094606	 173.968329031408	 134.180103922512
 401.4	 39.862814337467	 60.137185662533	 174.126385066337	 135.61767093317
 401.6	 39.8197710344593	 60.1802289655406	 174.27848213227	 137.056184775284
 401.8	 39.7841922565357	 60.2158077434643	 174.425094782512	 138.495395856888
 402	 39.756282309301	 60.2437176906989	 174.566704082694	 139.935051712822
 402.2	 39.736208430214	 60.263791569786	 174.703795473884	 141.374898042013
 402.4	 39.7241006038155	 60.2758993961845	 174.836856548179	 142.814679742387
 402.6	 39.7200515942301	 60.2799484057699	 174.966374765462	 144.254141937307
 402.8	 39.7241171955538	 60.2758828044462	 175.092835141024	 145.693030987402
 403	 39.7363166980531	 60.2636833019469	 175.216717934118	 147.131095481858
 403.2	 39.7566335654697	 60.2433664345304	 175.338496367282	 148.568087203374
 403.4	 39.7850163162039	 60.2149836837961	 175.458634405333	 150.003762061275
 403.6	 39.8213795987864	 60.1786204012135	 175.57758462149	 151.437880987593
 403.8	 39.8656054498824	 60.1343945501176	 175.695786175992	 152.87021079132
 404	 39.9175447211382	 60.0824552788618	 175.81366293009	 154.300524966451
 404.2	 39.97701865952	 60.02298134048	 175.931621715341	 155.728604449934
 404.4	 40.0438206244093	 59.9561793755907	 176.050050774908	 157.154238326121
 404.6	 40.1177179236489	 59.882282076351	 176.169318390121	 158.577224474879
 404.8	 40.1984770890461	 59.8015229109539	 176.289759484971	 159.997378374327
 405	 40.2858215363293	 59.7141784636707	 176.411701575742	 161.414515611057
 405.2	 40.3794295016323	 59.6205704983677	 176.535459939774	 162.828454924692
 405.4	 40.4789838149034	 59.5210161850966	 176.661313350457	 164.239034574377
 405.6	 40.5841515513285	 59.4158484486716	 176.789516724029	 165.646103959328
 405.8	 40.6945861877165	 59.3054138122835	 176.920300941026	 167.049523899745
 406	 40.8099297483046	 59.1900702516954	 177.053872851449	 168.449166856455
 406.2	 40.9298149239536	 59.0701850760464	 177.190415452475	 169.844917090568
 406.4	 41.0538671499427	 58.9461328500573	 177.330088225784	 171.236670764807
 406.6	 41.1817066289237	 58.8182933710763	 177.473027620293	 172.624335988553
 406.8	 41.3129502870473	 58.6870497129527	 177.619347665143	 174.007832808912
 407	 41.4472136527811	 58.552786347219	 177.769140697211	 175.387093150432
 407.2	 41.5841126494743	 58.4158873505257	 177.922478187232	 176.762060706263
 407.4	 41.7232652942624	 58.2767347057377	 178.079411648673	 178.132690783768
 407.6	 41.864293297412	 58.135706702588	 178.239973613885	 179.498950107693
 407.8	 42.0068235576708	 57.9931764423292	 178.404178662649	-179.139183415885
 408	 42.150489550577	 57.8495104494231	 178.572024489035	-177.781720971585
 408.2	 42.2949326079926	 57.7050673920074	 178.743492993418	-176.428663139449
 408.4	 42.4398030883327	 57.5601969116674	 178.918551387578	-175.080000229126
 408.6	 42.5847614380662	 57.4152385619338	 179.097153301942	-173.735712640318
 408.8	 42.7294791460523	 57.2705208539477	 179.279239885188	-172.395771246373
 409	 42.8736395931435	 57.1263604068565	 179.46474088768	-171.060137798009
 409.2	 43.0169388002413	 56.9830611997587	 179.653575721331	-169.728765344286
 409.4	 43.1590860786198	 56.8409139213803	 179.845654489713	-168.401598668051
 409.6	 43.2998045868501	 56.7001954131499	-179.959121016704	-167.078574733275
 409.8	 43.4388317990704	 56.5611682009296	-179.760856364235	-165.759623141816
 410	 43.5759198896415	 56.4240801103586	-179.559663561637	-164.44466659733
 410.2	 43.710836039442	 56.2891639605581	-179.355660189946	-163.133621374227
 410.4	 43.8433626691678	 56.1566373308323	-179.148968577836	-161.826397789714
 410.6	 43.973297605039	 56.026702394961	-178.939715023139	-160.52290067716
 410.8	 44.1004541822804	 55.8995458177197	-178.728029060522	-159.223029859173
 411	 44.2246612916389	 55.7753387083611	-178.514042774755	-157.926680618934
 411.2	 44.3457633740494	 55.6542366259506	-178.297890158522	-156.633744168498
 411.4	 44.4636203683523	 55.5363796316478	-178.079706513332	-155.344108112912
 411.6	 44.5781076167299	 55.4218923832701	-177.859627891752	-154.057656909136
 411.8	 44.6891157322502	 55.3108842677498	-177.637790578931	-152.774272318898
 412	 44.796550432613	 55.203449567387	-177.414330611165	-151.493833854687
 412.2	 44.9003323438726	 55.0996676561274	-177.189383329116	-150.216219218276
 412.4	 45.0003967775895	 54.9996032224106	-176.963082963204	-148.941304731165
 412.6	 45.0966934845198	 54.9033065154803	-176.735562248639	-147.66896575651
 412.8	 45.1891863876237	 54.8108136123764	-176.506952067527	-146.399077112129
 413	 45.2778532968313	 54.7221467031688	-176.277381115531	-145.131513474244
 413.2	 45.3626856076794	 54.6373143923206	-176.046975590621	-143.86614977171
 413.4	 45.4436879856135	 54.5563120143866	-175.815858901483	-142.602861570475
 413.6	 45.5208780374382	 54.4791219625618	-175.584151393329	-141.341525448103
 413.8	 45.5942859711131	 54.4057140288869	-175.351970088901	-140.082019358171
 414	 45.6639542448068	 54.3360457551932	-175.11942844265	-138.82422298442
 414.2	 45.7299372058721	 54.270062794128	-174.886636106187	-137.568018084503
 414.4	 45.7923007201632	 54.2076992798368	-174.653698703301	-136.313288823213
 414.6	 45.8511217919029	 54.1488782080972	-174.420717612978	-135.059922095053
 414.8	 45.906488174112	 54.093511825888	-174.187789759068	-133.807807836006
 415	 45.9584979694463	 54.0415020305538	-173.955007405408	-132.556839324352
 415.2	 46.0072592211374	 53.9927407788625	-173.722457955423	-131.306913470365
 415.4	 46.0528894936167	 53.9471105063833	-173.490223755419	-130.057931094676
 415.6	 46.0955154423014	 53.9044845576987	-173.258381900973	-128.809797195108
 415.8	 46.1352723719554	 53.8647276280447	-173.027004046042	-127.56242120172
 416	 46.1723037829897	 53.8276962170103	-172.796156214605	-126.31571721979
 416.2	 46.206760905051	 53.7932390949491	-172.56589861485	-125.069604260432
 416.4	 46.2388022172479	 53.7611977827522	-172.336285456133	-123.824006458523
 416.6	 46.2685929544047	 53.7314070455952	-172.107364769108	-122.578853277555
 416.8	 46.2963045987787	 53.7036954012213	-171.879178229636	-121.334079701053
 417	 46.3221143567652	 53.6778856432348	-171.651760987256	-120.089626410125
 417.2	 46.3462046202157	 53.6537953797843	-171.425141499166	-118.845439946707
 417.4	 46.3687624121196	 53.6312375878804	-171.199341370852	-117.601472862064
 417.6	 46.3899788165501	 53.61002118345	-170.974375204618	-116.35768385006
 417.8	 46.4100483929411	 53.5899516070589	-170.750250457441	-115.114037864736
 418	 46.429168574947	 53.570831425053	-170.52696730967	-113.870506221685
 418.2	 46.4475390543386	 53.5524609456614	-170.304518546207	-112.62706668278
 418.4	 46.4653611506072	 53.5346388493928	-170.082889451876	-111.38370352375
 418.6	 46.4828371671702	 53.5171628328298	-169.862057722748	-110.140407584155
 418.8	 46.5001697353122	 53.4998302646878	-169.641993395224	-108.897176299336
 419	 46.5175611472368	 53.4824388527632	-169.422658794693	-107.6540137139
 419.2	 46.5352126798444	 53.4647873201556	-169.204008505523	-106.410930476413
 419.4	 46.5533239111008	 53.4466760888993	-168.985989364149	-105.167943814925
 419.6	 46.5720920310955	 53.4279079689044	-168.768540476879	-103.925077493098
 419.8	 46.5917111501249	 53.4082888498751	-168.551593263962	-102.682361746684
 420	 46.6252682492905	 53.3747317507095	-168.344246054067	-101.488312068505
 420.2	 46.6839238465543	 53.3160761534457	-168.153832835301	-100.384903982167
 420.4	 46.743871432323	 53.256128567677	-167.963060852567	-99.2822989722443
 420.6	 46.8051969667605	 53.1948030332395	-167.771860289476	-98.1805365120623
 420.8	 46.8679822531374	 53.1320177468626	-167.580158177778	-97.0796589847802
 421	 46.9323046610521	 53.0676953389479	-167.387878550527	-95.9797115846843
 421.2	 46.9982368615818	 53.0017631384182	-167.194942605575	-94.8807422109235
 421.4	 47.0658465754593	 52.9341534245407	-167.001268878851	-93.7828013539469
 421.6	 47.1351963353379	 52.8648036646621	-166.80677342679	-92.6859419749377
 421.8	 47.2063432631645	 52.7936567368355	-166.611370017206	-91.5902193785727
 422	 47.2793388636316	 52.7206611363685	-166.414970327804	-90.495691079446
 422.2	 47.3542288346192	 52.6457711653807	-166.217484151485	-89.4024166625515
 422.4	 47.4310528954655	 52.5689471045345	-166.018819607484	-88.3104576382182
 422.6	 47.5098446338315	 52.4901553661685	-165.818883357365	-87.219877291937
 422.8	 47.590631371835	 52.409368628165	-165.617580824813	-86.130740529529
 423	 47.6734340520408	 52.3265659479591	-165.41481641813	-85.043113718129
 423.2	 47.7582671437893	 52.2417328562106	-165.21049375431	-83.9570645234834
 423.4	 47.8451385702464	 52.1548614297536	-165.004515883532	-82.8726617440685
 423.6	 47.9340496564418	 52.0659503435581	-164.796785512901	-81.789975142554
 423.8	 48.0249950984548	 51.9750049015451	-164.587205228279	-80.7090752751502
 424	 48.1179629537854	 51.8820370462145	-164.375677713017	-79.6300333193755
 424.2	 48.2129346528357	 51.7870653471643	-164.162105962458	-78.5529209008015
 424.4	 48.3098850313037	 51.6901149686962	-163.946393493086	-77.4778099193213
 424.6	 48.4087823831803	 51.5912176168196	-163.728444545236	-76.4047723754906
 424.8	 48.5095885339187	 51.4904114660812	-163.508164278338	-75.3338801974913
 425	 48.6122589332376	 51.3877410667624	-163.285458957727	-74.2652050692542
 425.2	 48.7167427669109	 51.2832572330891	-163.060236132094	-73.1988182602697
 425.4	 48.8229830867933	 51.1770169132066	-162.832404800767	-72.1347904576044
 425.6	 48.9309169582334	 51.0690830417666	-162.601875570048	-71.073191600622
 425.8	 49.0404756239384	 50.9595243760616	-162.368560797956	-70.0140907188926
 426	 49.1515846832728	 50.8484153167272	-162.132374726785	-68.957555773747
 426.2	 49.2641642858985	 50.7358357141015	-161.893233603008	-67.9036535039186
 426.4	 49.3781293385995	 50.6218706614004	-161.651055784125	-66.8524492756817
 426.6	 49.4933897240835	 50.5066102759164	-161.405761832178	-65.804006937871
 426.8	 49.6098505305025	 50.3901494694975	-161.157274593725	-64.7583886821397
 427	 49.7274122904042	 50.2725877095958	-160.905519266192	-63.7156549087778
 427.2	 49.8459712278014	 50.1540287721986	-160.650423450576	-62.6758640983853
 427.4	 49.9654195120261	 50.0345804879739	-160.3919171906	-61.6390726896656
 427.6	 50.0856455170431	 49.9143544829569	-160.129932998481	-60.6053349635552
 427.8	 50.2065340848884	 49.7934659151115	-159.864405867565	-59.5747029338957
 428	 50.3279667919271	 49.6720332080728	-159.595273272145	-58.547226244798
 428.2	 50.4498222166378	 49.5501777833622	-159.322475154873	-57.5229520748301
 428.4	 50.5719762076702	 49.4280237923297	-159.045953902207	-56.5019250481197
 428.6	 50.6943021509615	 49.3056978490385	-158.765654308413	-55.4841871524282
 428.8	 50.8166712347408	 49.1833287652592	-158.48152352868	-54.4697776642308
 429	 50.9389527113109	 49.0610472886891	-158.19351102195	-53.4587330807868
 429.2	 51.0610141545515	 48.9389858454484	-157.901568484099	-52.451087059181
 429.4	 51.1827217121549	 48.8172782878451	-157.605649772134	-51.4468703622634
 429.6	 51.3039403516738	 48.6960596483262	-157.305710820075	-50.4461108114009
 429.8	 51.4245340995327	 48.5754659004672	-157.001709547236	-49.4488332459303
 430	 51.5443662722305	 48.4556337277695	-156.693605759587	-48.4550594891638
 430.2	 51.6632996990347	 48.3367003009653	-156.381361044904	-47.4648083207993
 430.4	 51.7811969355526	 48.2188030644473	-156.064938662408	-46.4780954555426
 430.6	 51.8979204676336	 48.1020795323664	-155.744303427566	-45.4949335277518
 430.8	 52.013332905144	 47.9866670948559	-155.419421592724	-44.5153320818802
 431	 52.1272971652252	 47.8727028347747	-155.090260724227	-43.5392975684937
 431.2	 52.2396766447259	 47.760323355274	-154.756789576637	-42.566833345618
 431.4	 52.3503353815701	 47.6496646184298	-154.418977964661	-41.5979396851621
 431.6	 52.4591382048955	 47.5408617951044	-154.076796633335	-40.6326137841572
 431.8	 52.5659508738637	 47.4340491261362	-153.730217127019	-39.6708497805424
 432	 52.670640205108	 47.329359794892	-153.379211657686	-38.7126387732224
 432.2	 52.7730741888471	 47.2269258111529	-153.023752972979	-37.757968846122
 432.4	 52.8731220937509	 47.126877906249	-152.663814224463	-36.8068250959587
 432.6	 52.9706545606964	 47.0293454393036	-152.299368836455	-35.8591896634505
 432.8	 53.0655436856019	 46.934456314398	-151.930390375799	-34.9150417676868
 433	 53.1576630915767	 46.8423369084232	-151.556852422889	-33.974357743383
 433.2	 53.2468879906585	 46.7531120093415	-151.178728444232	-33.0371110807474
 433.4	 53.3330952354528	 46.6669047645471	-150.79599166679	-32.1032724676974
 433.6	 53.4161633610224	 46.5838366389776	-150.408614954313	-31.1728098341599
 433.8	 53.4959726173984	 46.5040273826015	-150.016570685836	-30.2456883982053
 434	 53.5724049931183	 46.4275950068816	-149.619830636492	-29.3218707137665
 434.2	 53.6453442302099	 46.35465576979	-149.218365860746	-28.4013167197089
 434.4	 53.7146758310643	 46.2853241689356	-148.81214657814	-27.4839837900194
 434.6	 53.7802870576537	 46.2197129423463	-148.401142061606	-26.5698267848978
 434.8	 53.8420669235596	 46.1579330764404	-147.985320528375	-25.6587981025422
 435	 53.899906179292	 46.1000938207079	-147.564649033488	-24.7508477314281
 435.2	 53.9536972913785	 46.0463027086214	-147.1390933659	-23.8459233028968
 435.4	 54.0033344157128	 45.9966655842871	-146.708617947134	-22.9439701438739
 435.6	 54.0487133656496	 45.9512866343504	-146.273185732436	-22.0449313295567
 435.8	 54.0897315762344	 45.9102684237655	-145.832758116329	-21.1487477335864
 436	 54.1263041836021	 45.8736958163978	-145.387326957275	-20.2553201830306
 436.2	 54.1583184109724	 45.8416815890276	-144.936817641444	-19.3646236805237
 436.4	 54.1856762334109	 45.8143237665891	-144.481186286538	-18.4765928752017
 436.6	 54.2082810616393	 45.7917189383606	-144.020387086289	-17.5911604200895
 436.8	 54.2260376889433	 45.7739623110567	-143.554372224484	-16.7082570217497
 437	 54.2388522361475	 45.7611477638524	-143.083091790696	-15.8278114890578
 437.2	 54.2473308379705	 45.7526691620294	-142.605308713391	-14.9482604797574
 437.4	 54.2519344603475	 45.7480655396526	-142.119916948046	-14.0682704923292
 437.6	 54.2512523095449	 45.748747690455	-141.629042666482	-13.1905406195231
 437.8	 54.2451946610395	 45.7548053389606	-141.132626075533	-12.3149912079446
 438	 54.2336728489296	 45.7663271510704	-140.630604816637	-11.4415409109443
 438.2	 54.2165992060568	 45.7834007939432	-140.122913887381	-10.5701067316178
 438.4	 54.1938870052956	 45.8061129947044	-139.609485563609	-9.70060406456633
 438.6	 54.165450402427	 45.8345495975729	-139.090249321876	-8.83294673640967
 438.8	 54.1312043810072	 45.8687956189927	-138.565131762098	-7.96704704505493
 439	 54.0910646996334	 45.9089353003665	-138.034056530174	-7.10281579772845
 439.2	 54.044947842013	 45.9550521579869	-137.496944240414	-6.24016234779003
 439.4	 53.9927709702321	 46.0072290297678	-136.953712397584	-5.37899463035745
 439.6	 53.9344518816251	 46.0655481183749	-136.404275318365	-4.51921919677346
 439.8	 53.8699089696423	 46.1300910303577	-135.848544052049	-3.66074124796006
 440	 53.7990611891179	 46.200938810882	-135.286426300286	-2.8034646667079
 440.2	 53.721828026338	 46.2781719736619	-134.717826335688	-1.94729204896242
 440.4	 53.6381294743179	 46.3618705256821	-134.142644919104	-1.09212473416818
 440.6	 53.5478860136983	 46.4521139863016	-133.56077921539	-.237862834747659
 440.8	 53.4510185996803	 46.5489814003196	-132.972122707468	 .61559473520848
 441	 53.3474486554216	 46.6525513445784	-132.376565108512	 1.46835023194997
 441.2	 53.2370980723303	 46.7629019276697	-131.773992272055	 2.3205070546812
 441.4	 53.1198892177003	 46.8801107822996	-131.164286099851	 3.17216971867931
 441.6	 52.9957449501426	 47.0042550498573	-130.547324447286	 4.0234438288073
 441.8	 52.86458864328	 47.13541135672	-129.922981026167	 4.87443605330735
 442	 52.7263442181869	 47.273655781813	-129.291125304697	 5.72525409774828
 442.2	 52.5809361850689	 47.4190638149311	-128.651622404452	 6.57600667900151
 442.4	 52.4282896946903	 47.5717103053097	-128.004332994163	 7.42680349910421
 442.6	 52.2683306000782	 47.7316693999218	-127.349113180125	 8.27775521886729
 442.8	 52.1009855290426	 47.8990144709574	-126.685814393031	 9.12897343107094
 443	 51.9261819680712	 48.0738180319288	-126.014283271042	 9.98057063309834
 443.2	 51.7438483581761	 48.2561516418239	-125.334361538906	 10.8326601988262
 443.4	 51.5539142032832	 48.4460857967167	-124.64588588291	 11.6853563496079
 443.6	 51.3563101917731	 48.6436898082268	-123.948687821484	 12.5387741241601
 443.8	 51.1509683318011	 48.8490316681989	-123.242593571241	 13.3930293471622
 444	 50.937822101033	 49.062177898967	-122.527423908261	 14.2482385963721
 444.2	 50.7168066114562	 49.2831933885437	-121.802994024396	 15.1045191680474
 444.4	 50.4878587899312	 49.5121412100687	-121.069113378395	 15.9619890404558
 444.6	 50.250917575163	 49.7490824248369	-120.325585541641	 16.8207668352533
 444.8	 50.0059241317813	 49.9940758682187	-119.572208038274	 17.6809717764944
 445	 49.7528220822211	 50.2471779177789	-118.808772179484	 18.5427236470346
 445.2	 49.4915577571024	 50.5084422428976	-118.035062891764	 19.4061427420758
 445.4	 49.2220804648018	 50.7779195351982	-117.2508585389	 20.2713498195949
 445.6	 48.9443427809066	 51.0556572190935	-116.45593073747	 21.138466047391
 445.8	 48.6583008582281	 51.3416991417718	-115.65004416565	 22.0076129464776
 446	 48.3639147580366	 51.6360852419634	-114.8329563651	 22.8789123305373
 446.2	 48.0611488031528	 51.9388511968472	-114.00441753572	 23.7524862411489
 446.4	 47.7499719535036	 52.2500280464963	-113.164170323085	 24.628456878494
 446.6	 47.4303582047058	 52.5696417952942	-112.311949598352	 25.5069465272388
 446.8	 47.1022870101936	 52.8977129898064	-111.447482230465	 26.3880774772832
 447	 46.7657437273457	 53.2342562726543	-110.570486850491	 27.2719719390668
 447.2	 46.4207200879943	 53.5792799120056	-109.680673607964	 28.1587519531151
 447.4	 46.0672146936164	 53.9327853063835	-108.777743919093	 29.0485392935043
 447.6	 45.7052335354041	 54.2947664645958	-107.861390206793	 29.9414553649282
 447.8	 45.3347905393023	 54.6652094606976	-106.931295632483	 30.8376210930468
 448	 44.9559081359677	 55.0440918640323	-105.987133819674	 31.7371568077956
 448.2	 44.5686178554557	 55.4313821445443	-105.028568569454	 32.6401821193442
 448.4	 44.1729609462776	 55.8270390537224	-104.055253568002	 33.5468157863949
 448.6	 43.7689890182781	 56.2310109817219	-103.066832086429	 34.4571755765213
 448.8	 43.3567647085807	 56.6432352914193	-102.062936673294	 35.371378118257
 449	 42.9363623696128	 57.0636376303872	-101.043188840319	 36.2895387446621
 449.2	 42.5078687779735	 57.4921312220265	-100.007198741979	 37.2117713281073
 449.4	 42.0713838626237	 57.9286161373762	-98.954564849827	 38.1381881060398
 449.6	 41.6270214505806	 58.3729785494194	-97.884873622656	 39.0688994975192
 449.8	 41.1749100279684	 58.8250899720316	-96.7976991738462	 40.0040139103381
 450	 40.7151935139219	 59.2848064860781	-95.6926029375792	 40.943637538582
 450.2	 40.2480320444684	 59.7519679555317	-94.5691333359534	 41.8878741505123
 450.4	 39.7736027631034	 60.2263972368967	-93.4268254494693	 42.8368248667028
 450.6	 39.2921006143528	 60.7078993856472	-92.265200693836	 43.7905879284179
