Wavelength (nm)	Reflectance (%)	Transmittance (%)	Density 
 400	 90.8003126495886	 9.19787101609148	 1.03631268493294
 400.2	 90.6156808335094	 9.38248398925578	 1.02768216801627
 400.4	 90.4247192297354	 9.57342621532814	 1.01893260557606
 400.6	 90.227230665747	 9.77089486453517	 1.01006565972722
 400.8	 90.0230124926731	 9.97509258388772	 1.0010830647154
 401	 89.8118566443597	 10.1862274381737	 .991986631120663
 401.2	 89.5935497246439	 10.4045128227516	 .982778250228331
 401.4	 89.3678731262402	 10.6301673447354	 .973459898569545
 401.6	 89.1346031849374	 10.863414668874	 .964033642633383
 401.8	 88.893511373093	 11.1044833241388	 .954501643751766
 402	 88.6443645367205	 11.3536064667246	 .944866163157276
 402.2	 88.3869251807751	 11.6110215948564	 .935129567213188
 402.4	 88.1209518075693	 11.876970210474	 .925294332813558
 402.6	 87.8461993135657	 12.1516974225444	 .915363052950022
 402.8	 87.5624194501223	 12.4354514864288	 .905338442440271
 403	 87.2693613540776	 12.7284832734171	 .895223343811363
 403.2	 86.9667721543679	 13.0310456642348	 .885020733329154
 403.4	 86.6543976611549	 13.3433928600495	 .874733727162643
 403.6	 86.3319831441953	 13.6657796042391	 .864365587669722
 403.8	 85.9992742074108	 13.9984603079689	 .85391972978788
 404	 85.6560177667788	 14.3416880724531	 .843399727510326
 404.2	 85.3019631387869	 14.6957136006606	 .832809320424671
 404.4	 84.9368632467153	 15.0607839911965	 .822152420287482
 404.6	 84.5604759519665	 15.4371414071451	 .811433117603994
 404.8	 84.1725767285704	 15.8249955944672	 .800656402214169
 405	 83.7729386290727	 16.2245724113416	 .789826739941574
 405.2	 83.361332741593	 16.6361151813165	 .778948081428225
 405.4	 82.9375527477878	 17.0598301911246	 .768025295995261
 405.6	 82.501406029661	 17.4959100292529	 .757063463275144
 405.8	 82.0527158824965	 17.9445313733508	 .746067878909192
 406	 81.5913238896921	 18.4058526157586	 .735044059893892
 406.2	 81.1170924603947	 18.880011326263	 .723997749501296
 406.4	 80.6299075289382	 19.3671215530717	 .712934921692384
 406.6	 80.1296814128713	 19.8672709652257	 .701861784935556
 406.8	 79.6163558237837	 20.3805178422324	 .690784785336125
 407	 79.089905022205	 20.9068879196527	 .679710608976197
 407.2	 78.550339104526	 21.4463711026822	 .6686461833585
 407.4	 77.9977074061965	 21.9989180634757	 .657598677842191
 407.6	 77.432102001372	 22.564436742037	 .646575502953865
 407.8	 76.8536612747517	 23.1427887749287	 .63558430845314
 408	 76.2625735365846	 23.7337858808197	 .624632980029336
 408.2	 75.6590806467922	 24.3371862369191	 .613729634504394
 408.4	 75.0434816088984	 24.9526908855962	 .602882613417304
 408.6	 74.4161360891006	 25.5799402158494	 .592100474867414
 408.8	 73.7774678104266	 26.2185105696695	 .58139198349821
 409	 73.1279677666626	 26.867911028604	 .570766098509801
 409.2	 72.4681971957585	 27.527580440808	 .560231959597767
 409.4	 71.7987902478799	 28.1968847534004	 .54979887072825
 409.6	 71.1204562794068	 28.8751147188176	 .539476281674675
 409.8	 70.4339817011715	 29.5614840468572	 .529273767260204
 410	 69.7402313073264	 30.2551280760154	 .519201004272158
 410.2	 69.0401490106609	 30.9551030382807	 .509267746040278
 410.4	 68.3347579111874	 31.66038599056	 .499483794699551
 410.6	 67.6251596275908	 32.369875483124	 .489858971190451
 410.8	 66.9125328259128	 33.0823930306987	 .48040308308448
 411	 66.1981308867287	 33.7966854449296	 .471125890360295
 411.2	 65.4832786612326	 34.5114280777988	 .462037069295139
 411.4	 64.7693682780755	 35.2252290141435	 .453146174676931
 411.6	 64.0578539764899	 35.9366342377389	 .444462600583386
 411.8	 63.3502459570572	 36.6441337795871	 .435995540015138
 412	 62.6481032591999	 37.3461688393331	 .427753943708748
 412.2	 61.9530256938267	 38.0411398513818	 .419746478492017
 412.4	 61.2666448800431	 38.7274154468123	 .411981485576311
 412.6	 60.5906144560336	 39.4033422409954	 .404466939208436
 412.8	 59.9265995554384	 40.0672553556025	 .397210406125866
 413	 59.2762656611995	 40.7174895630502	 .390219006273558
 413.2	 58.6412669681875	 41.3523909220892	 .383499375246835
 413.4	 58.023234403239	 41.9703287559295	 .377057628922251
 413.6	 57.4237634658363	 42.5697078096967	 .370899330726596
 413.8	 56.8444020638965	 43.1489804127776	 .365029461972782
 414	 56.2866385264447	 43.7066584643091	 .359452395660552
 414.2	 55.7518899778953	 44.2413250571149	 .354171874099937
 414.4	 55.2414912569556	 44.7516455571023	 .349190990666958
 414.6	 54.7566845566906	 45.23637796161	 .344512175945079
 414.8	 54.2986099510948	 45.6943823713833	 .340137188443741
 415	 53.8682969578812	 46.1246294264933	 .336067110018262
 415.2	 53.4666572675209	 46.5262075761812	 .33230234604532
 415.4	 53.0944787454778	 46.8983290757057	 .328842630336685
 415.6	 52.752420788788	 47.240334629052	 .325687034702976
 415.8	 52.4410110904863	 47.5516966240099	 .322833983010474
 416	 52.1606438367747	 47.8320209347285	 .320281269509401
 416.2	 51.9115793331929	 48.081047295491	 .318026081153008
 416.4	 51.6939450282659	 48.2986482772225	 .316065023574741
 416.6	 51.5077378770403	 48.4848269243185	 .314394150346651
 416.8	 51.352827963286	 48.6397131329985	 .313008995107098
 417	 51.2289632785654	 48.7635588729697	 .311904606119887
 417.2	 51.1357755393251	 48.856732371229	 .311075582810793
 417.4	 51.072786909938	 48.9197113900508	 .310516113820505
 417.6	 51.0394174903807	 48.9530757404596	 .310220016115291
 417.8	 51.034993421954	 48.9574991777518	 .310180774707303
 418	 51.0587554629919	 48.9337408271022	 .31039158255463
 418.2	 51.1098678885964	 48.8826362851943	 .31084538023607
 418.4	 51.1874275736941	 48.8050885385566	 .311534895025855
 418.6	 51.2904731267031	 48.7020588312964	 .31245267902825
 418.8	 51.4179939513359	 48.5745576046862	 .313591146069787
 419	 51.5689391260215	 48.4236356191036	 .314942607086749
 419.2	 51.7422260036049	 48.2503753556504	 .316499303786434
 419.4	 51.9367484478843	 48.0558827808779	 .31825344040147
 419.6	 52.1513846377228	 47.8412795438724	 .320197213396489
 419.8	 52.3850043835125	 47.6076956609124	 .322322839024745
 420	 52.6335939337822	 47.3591442680642	 .324596153477182
 420.2	 52.8917398948457	 47.1010510289867	 .326969401767145
 420.4	 53.1629823419961	 46.8298631599756	 .329477111253887
 420.6	 53.446479266608	 46.546422530314	 .332113692449525
 420.8	 53.7414017742319	 46.2515578980459	 .334873634273494
 421	 54.0469366744953	 45.9460823204491	 .337751513639055
 421.2	 54.3622887522771	 45.6307908831839	 .340742003871959
 421.4	 54.6866827311915	 45.3064587370812	 .343839882006381
 421.6	 55.0193649428161	 44.9738394291382	 .34704003500908
 421.8	 55.3596047169979	 44.6336635123929	 .350337464987418
 422	 55.7066955100046	 44.286637417909	 .353727293440376
 422.2	 56.0599557882898	 43.9334425711113	 .357204764614057
 422.4	 56.4187296862609	 43.5747347340803	 .360765248024644
 422.6	 56.7823874567214	 43.2111435551423	 .364404240212344
 422.8	 57.1503257326355	 42.843272307107	 .368117365789627
 423	 57.5219676186083	 42.4716977957643	 .371900377846286
 423.2	 57.8967626299795	 42.0969704207442	 .375749157772324
 423.4	 58.2741864967985	 41.7196143714768	 .379659714557917
 423.6	 58.6537408491479	 41.3401279417835	 .383628183627343
 423.8	 59.0349527994108	 40.958983947514	 .387650825261256
 424	 59.4173744361101	 40.5766302325952	 .391724022658907
 424.2	 59.8005822429443	 40.1934902498754	 .39584427968887
 424.4	 60.1841764556217	 39.809963704161	 .400008218373947
 424.6	 60.5677803680487	 39.426427245894	 .4042125761526
 424.8	 60.9510395984143	 39.0432352049264	 .408454202956324
 425	 61.3336213247068	 38.6607203548618	 .412730058139155
 425.2	 61.7152134982337	 38.2791946993897	 .417037207292532
 425.4	 62.0955240427925	 37.8989502729693	 .421372818975741
 425.6	 62.4742800462644	 37.52025994909	 .425734161389341
 425.8	 62.8512269505797	 37.1433782501622	 .430118599016221
 426	 63.2261277452344	 36.7685421538577	 .434523589252339
 426.2	 63.5987621688299	 36.3959718914301	 .438946679046743
 426.4	 63.9689259224472	 36.0258717342035	 .443385501568136
 426.6	 64.3364298980759	 35.6584307650112	 .447837772913103
 426.8	 64.7010994247635	 35.2938236319147	 .452301288869083
 427	 65.0627735346729	 34.9322112820224	 .456773921743298
 427.2	 65.4213042507822	 34.5737416736683	 .461253617267153
 427.4	 65.7765558975719	 34.2185504656075	 .465738391583974
 427.6	 66.1284044357007	 33.8667616822289	 .47022632832659
 427.8	 66.4767368213533	 33.5184883540997	 .474715575789868
 428	 66.8214503906843	 33.1738331334188	 .479204344202179
 428.2	 67.1624522695428	 32.8328888841934	 .483690903098662
 428.4	 67.4996588084623	 32.4957392471566	 .488173578798186
 428.6	 67.8329950427323	 32.1624591796053	 .492650751985123
 428.8	 68.1623941772167	 31.8331154704982	 .497120855396153
 429	 68.4877970954725	 31.507767231256	 .501582371611839
 429.2	 68.8091518926096	 31.1864663628249	 .506033830951911
 429.4	 69.1264134312682	 30.8692579996277	 .510473809472882
 429.6	 69.4395429200126	 30.5561809311013	 .514900927066068
 429.8	 69.7485075134011	 30.2472680015618	 .519313845653758
 430	 70.0532799329541	 29.9425464891756	 .523711267480988
 430.2	 70.3538381082146	 29.6420384648414	 .528091933500034
 430.4	 70.6501648370892	 29.345761131794	 .532454621844688
 430.6	 70.9422474646432	 29.0537271467588	 .536798146391024
 430.8	 71.2300775795328	 28.7659449234708	 .541121355401424
 431	 71.5136507272601	 28.4824189193743	 .54542313024844
 431.2	 71.79296613945	 28.2031499063033	 .549702384215019
 431.4	 72.0680264783666	 27.9281352259243	 .553958061367661
 431.6	 72.3388375959065	 27.6573690307062	 .558189135499
 431.8	 72.605408306326	 27.3908425111563	 .562394609136373
 432	 72.8677501719895	 27.1285441100396	 .56657351261297
 432.2	 73.1258773014473	 26.870459724269	 .570724903198194
 432.4	 73.3798061591813	 26.6165728951306	 .574847864283949
 432.6	 73.6295553863853	 26.3668649874753	 .578941504623671
 432.8	 73.8751456321726	 26.1213153584856	 .583004957620975
 433	 74.1165993946346	 25.8799015165928	 .587037380664918
 433.2	 74.3539408711996	 25.6425992710954	 .591037954508967
 433.4	 74.5871958177705	 25.4093828729997	 .595005882690895
 433.6	 74.8163914161471	 25.1802251475781	 .598940390990919
 433.8	 75.0415561492626	 24.9550976191134	 .602840726925514
 434	 75.2627196837939	 24.7339706282713	 .606706159274495
 434.2	 75.4799127597246	 24.516813442521	 .610535977639004
 434.4	 75.6931670864679	 24.3035943599964	 .614329492028251
 434.6	 75.9025152451767	 24.0942808071728	 .618086032472871
 434.8	 76.1079905968902	 23.8888394307057	 .621804948662997
 435	 76.3096271961876	 23.6872361837651	 .625485609609143
 435.2	 76.5074597100393	 23.4894364071731	 .629127403324188
 435.4	 76.7015233415627	 23.2954049056361	 .63272973652483
 435.6	 76.8918537584097	 23.1051060193484	 .636292034350974
 435.8	 77.0784870234013	 22.9185036933463	 .63981374006136
 436	 77.2614247610906	 22.7355899877014	 .643293771387242
 436.2	 77.440738844503	 22.5562994603635	 .646732148295419
 436.4	 77.6164662091356	 22.3805951806915	 .650128368198507
 436.6	 77.7886439561717	 22.2084400523798	 .653481945748526
 436.8	 77.9573093038196	 22.0397968621129	 .656792412636496
 437	 78.1224995417801	 21.8746283250923	 .660059317402005
 437.2	 78.2849986475585	 21.7121505667419	 .663297157982125
 437.4	 78.4454463647934	 21.5517239274152	 .666517984797042
 437.6	 78.6024760925604	 21.3947148286311	 .669693497877282
 437.8	 78.7561261174023	 21.2410849888798	 .672823303379235
 438	 78.9064346014275	 21.0907962510694	 .675907023820597
 438.2	 79.0534395514291	 20.9438106134027	 .678944297928825
 438.4	 79.1971787902601	 20.8000902579983	 .681934780495626
 438.6	 79.3376899303523	 20.6595975773684	 .684878142237038
 438.8	 79.4750103492695	 20.5222951988622	 .68777406965874
 439	 79.6091771671957	 20.3881460071749	 .690622264926212
 439.2	 79.7402272262615	 20.2571131650184	 .693422445739471
 439.4	 79.868197071619	 20.1291601320441	 .696174345212095
 439.6	 79.9931229341825	 20.0042506820998	 .698877711754319
 439.8	 80.1150407149527	 19.8823489189038	 .70153230895999
 440	 80.2339859708507	 19.7634192902079	 .704137915497225
 440.2	 80.3499939019915	 19.6474266005242	 .706694325002589
 440.4	 80.4630993403279	 19.5343360224778	 .709201345978725
 440.6	 80.5733367396035	 19.4241131068534	 .711658801695277
 440.8	 80.680740166555	 19.3167237913921	 .714066530093058
 441	 80.7853432933057	 19.2121344083958	 .716424383691392
 441.2	 80.8871793909001	 19.1103116911932	 .718732229498554
 441.4	 80.9862813239257	 19.011222779516	 .720989948925305
 441.6	 81.0826815461773	 18.9148352238349	 .723197437701448
 441.8	 81.1764120973178	 18.821116988698	 .725354605795437
 442	 81.267504600493	 18.7300364551159	 .727461377336976
 442.2	 81.3559902608598	 18.6415624220326	 .729517690542642
 442.4	 81.4418998649921	 18.5556641069206	 .731523497644505
 442.6	 81.5252637811258	 18.4723111455355	 .733478764821765
 442.8	 81.6061119602098	 18.3914735908645	 .735383472135392
 443	 81.6844739377335	 18.3131219112999	 .737237613465797
 443.2	 81.760378836297	 18.2372269880694	 .739041196453525
 443.4	 81.8338553688973	 18.1637601119496	 .740794242442979
 443.6	 81.9049318429037	 18.0926929792915	 .742496786429174
 443.8	 81.9736361646964	 18.0239976873825	 .744148877007544
 444	 82.0399958449446	 17.957646729169	 .745750576326763
 444.2	 82.1040380045013	 17.8936129873627	 .747301960044604
 444.4	 82.1657893808919	 17.8318697279517	 .748803117286812
 444.6	 82.2252763353805	 17.7723905931369	 .750254150608977
 444.8	 82.2825248605891	 17.7151495937123	 .751655175961373
 445	 82.3375605886558	 17.6601211009083	 .753006322656757
 445.2	 82.3904087999139	 17.6072798377142	 .754307733341061
 445.4	 82.4410944320741	 17.5566008696967	 .755559563966957
 445.6	 82.4896420898966	 17.5080595953295	 .756761983770217
 445.8	 82.5360760553363	 17.4616317358485	 .757915175248827
 446	 82.5804202981502	 17.4172933246472	 .759019334144781
 446.2	 82.6226984869494	 17.3750206962249	 .760074669428443
 446.4	 82.6629340006881	 17.3347904747001	 .761081403285432
 446.6	 82.7011499405722	 17.2965795619028	 .76203977110588
 446.8	 82.7373691423806	 17.2603651250552	 .762950021475997
 447	 82.7716141891841	 17.2261245840544	 .763812416171765
 447.2	 82.8039074244529	 17.1938355983666	 .764627230154675
 447.4	 82.8342709655412	 17.1634760535441	 .765394751569318
 447.6	 82.8627267175384	 17.1350240473763	 .766115281742692
 447.8	 82.8892963874766	 17.1084578756838	 .766789135185048
 448	 82.9140014988831	 17.0837560177678	 .767416639592073
 448.2	 82.9368634066684	 17.060897121524	 .767998135848236
 448.4	 82.9579033123386	 17.0398599882326	 .768533978031044
 448.6	 82.9771422795211	 17.0206235570341	 .769024533416035
 448.8	 82.9946012497931	 17.0031668891033	 .769470182482209
 449	 83.0103010588009	 16.9874691515319	 .769871318917678
 449.2	 83.0242624526587	 16.9735096009314	 .770228349625259
 449.4	 83.036506104615	 16.9612675667703	 .770541694727706
 449.6	 83.0470526319721	 16.9507224344555	 .770811787572313
 449.8	 83.0559226132463	 16.9418536281743	 .77103907473454
 450	 83.0631366055563	 16.9346405935094	 .771224016020351
 450.2	 83.0687151622208	 16.9290627798426	 .771367084466928
 450.4	 83.0726788505532	 16.925099622563	 .771468766341369
 450.6	 83.0750482698341	 16.9227305250961	 .771529561137026
 450.8	 83.0758440694461	 16.9219348407727	 .771549981567088
 451	 83.0750869671484	 16.9226918545554	 .771530553554982
 451.2	 83.074153064302	 16.9236256456812	 .771506589923884
 451.4	 83.0734118058911	 16.9243668176507	 .771487570367738
 451.6	 83.0712446081077	 16.9265337418561	 .771431968702148
 451.8	 83.067671259891	 16.9301066319581	 .771340306538131
 452	 83.0627116723567	 16.9350655794566	 .771213117251356
 452.2	 83.0563858949968	 16.9413905374933	 .771050945954807
 452.4	 83.0487141318726	 16.9490613046609	 .770854349466493
 452.6	 83.0397167577755	 16.9580575088446	 .770623896271798
 452.8	 83.0294143343319	 16.9683585911186	 .770360166480031
 453	 83.0178276260256	 16.9799437897268	 .770063751774746
 453.2	 83.0049776161088	 16.9927921241729	 .769735255357397
 453.4	 82.990885522373	 17.006882379452	 .769375291883864
 453.6	 82.9755728127506	 17.0221930904517	 .768984487393407
 453.8	 82.9590612207104	 17.0387025265573	 .768563479229551
 454	 82.9413727604187	 17.0563886764936	 .76811291595247
 454.2	 82.9225297416264	 17.0752292334398	 .767633457242348
 454.4	 82.9025547842472	 17.0952015804523	 .767125773793274
 454.6	 82.881470832588	 17.1162827762377	 .76659054719715
 454.8	 82.8593011691908	 17.1384495413111	 .76602846981715
 455	 82.836069428246	 17.1616782445857	 .76544024465023
 455.2	 82.8117996085326	 17.1859448904335	 .764826585178186
 455.4	 82.7865160858422	 17.2112251062636	 .764188215206808
 455.6	 82.7602436248403	 17.2374941306624	 .763525868692605
 455.8	 82.7330073903171	 17.2647268021433	 .762840289556658
 456	 82.7048329577819	 17.2928975485551	 .762132231485096
 456.2	 82.6757463233484	 17.3219803771971	 .761402457715768
 456.4	 82.6457739128628	 17.3519488656925	 .760651740810618
 456.6	 82.6149425902219	 17.382776153671	 .759880862413348
 456.8	 82.5832796648303	 17.4144349353135	 .759090612991946
 457	 82.5508128981419	 17.4468974528101	 .758281791565646
 457.2	 82.517570509234	 17.4801354907883	 .757455205415938
 457.4	 82.4835811793592	 17.5141203717601	 .756611669781275
 457.6	 82.4488740554225	 17.5488229526465	 .755752007535106
 457.8	 82.4134787523286	 17.5842136224303	 .75487704884693
 458	 82.3774253541464	 17.6202623009914	 .753987630826057
 458.2	 82.3407444140386	 17.6569384391771	 .75308459714786
 458.4	 82.303466952904	 17.6942110201605	 .752168797662229
 458.6	 82.2656244566804	 17.732048562136	 .751241087984094
 458.8	 82.2272488722615	 17.7704191224032	 .750302329065807
 459	 82.188372601976	 17.8092903028858	 .749353386751336
 459.2	 82.1490284965871	 17.8486292571319	 .748395131312144
 459.4	 82.1092498467656	 17.8884026988398	 .747428436964765
 459.6	 82.0690703729979	 17.9285769119485	 .746454181370105
 459.8	 82.0285242138896	 17.9691177623327	 .74547324511453
 460	 81.9876459128305	 18.0099907111352	 .744486511172901
 460.2	 81.9465054068429	 18.0511297878219	 .743495611195351
 460.4	 81.9051040280896	 18.0925297211752	 .742500705271937
 460.6	 81.8634773870357	 18.1341549055506	 .741502678760576
 460.8	 81.821661426153	 18.1759694033088	 .740502417042212
 461	 81.7796923980124	 18.2179369667202	 .739500804898576
 461.2	 81.737606841628	 18.2600210616172	 .738498725874071
 461.4	 81.6954415570506	 18.3021848927974	 .737497061622318
 461.6	 81.6532335782168	 18.3443914311706	 .736496691238009
 461.8	 81.6110201440642	 18.3866034426392	 .735498490574814
 462	 81.5688386679316	 18.4287835186942	 .734503331550049
 462.2	 81.5267267052695	 18.4708941087007	 .733512081437044
 462.4	 81.4847219196907	 18.5128975538419	 .732525602146037
 462.6	 81.4428620474045	 18.5547561226812	 .731544749494657
 462.8	 81.4011848600782	 18.5964320482951	 .730570372469011
 463	 81.3597281261816	 18.637887566924	 .729603312476501
 463.2	 81.3185295708781	 18.6790849580758	 .728644402591579
 463.4	 81.2776268345317	 18.7199865860143	 .727694466795672
 463.6	 81.2370574299072	 18.7605549425529	 .72675431921261
 463.8	 81.1968586981518	 18.8007526910677	 .725824763340913
 464	 81.1570677636491	 18.8405427116384	 .724906591284379
 464.2	 81.1177214878486	 18.8798881472127	 .724000582982451
 464.4	 81.0788564221775	 18.9187524506891	 .723107505441899
 464.6	 81.0405087601526	 18.9570994327993	 .722228111971379
 464.8	 81.0027142888113	 18.9948933106712	 .721363141420496
 465	 80.9655083395945	 19.0320987569407	 .72051331742502
 465.2	 80.9289257388124	 19.0686809492797	 .71967934765992
 465.4	 80.893000757837	 19.1046056201988	 .718861923101941
 465.6	 80.8577670631631	 19.1398391069791	 .718061717303421
 465.8	 80.8232576664924	 19.1743484015843	 .717279385679091
