Wavelength  (nm)	Reflectance (%)	Transmittance (%)	Reflectance Phase (deg)	Transmittance Phase (deg)
 400	 90.7612128185539	 9.23878718144615	-163.636741518378	 175.812173613622
 400.2	 90.5749955777772	 9.4250044222228	-162.767196065266	 176.689338784034
 400.4	 90.3823609244553	 9.61763907554473	-161.887137661416	 177.57508546078
 400.6	 90.1831065338985	 9.81689346610152	-160.99622055876	 178.469613050164
 400.8	 89.97702429227	 10.0229757077299	-160.094090934195	 179.373123858768
 401	 89.7639003385016	 10.2360996614985	-159.180386683961	-179.714176916137
 401.2	 89.5435151338229	 10.4564848661772	-158.254737222791	-178.792081206595
 401.4	 89.3156435623626	 10.6843564376374	-157.316763289003	-177.860378105435
 401.6	 89.0800550665707	 10.9199449334293	-156.366076756821	-176.918853910306
 401.8	 88.8365138215256	 11.1634861784744	-155.402280457383	-175.967292181483
 402	 88.5847789525113	 11.4152210474887	-154.424968010034	-175.005473814727
 402.2	 88.324604800588	 11.675395199412	-153.433723665688	-174.033177130568
 402.4	 88.0557412412167	 11.9442587587833	-152.42812216422	-173.050177981476
 402.6	 87.7779340613555	 12.2220659386445	-151.407728608047	-172.056249878473
 402.8	 87.4909254007939	 12.5090745992061	-150.372098354297	-171.051164138853
 403	 87.1944542638396	 12.8055457361604	-149.320776928165	-170.034690056736
 403.2	 86.8882571078182	 13.1117428921817	-148.253299960339	-169.006595098309
 403.4	 86.5720685151677	 13.4279314848323	-147.169193151614	-167.966645123694
 403.6	 86.2456219562157	 13.7543780437844	-146.067972268134	-166.914604637456
 403.8	 85.9086506499976	 14.0913493500024	-144.949143170979	-165.850237069868
 404	 85.5608885306971	 14.4391114693028	-143.812201884152	-164.773305091117
 404.2	 85.202071327463	 14.797928672537	-142.656634705369	-163.683570960705
 404.4	 84.8319377654496	 15.1680622345504	-141.481918364411	-162.580796914362
 404.6	 84.4502308959406	 15.5497691040594	-140.287520234174	-161.46474559082
 404.8	 84.0567107230062	 15.9432892769938	-139.072898706229	-160.335179939643
 405	 83.6511342723845	 16.3488657276156	-137.837503105497	-159.191865962639
 405.2	 83.2332560773899	 16.7667439226102	-136.580774416321	-158.034571434738
 405.4	 82.8028526550431	 17.1971473449569	-135.302145923755	-156.863065756432
 405.6	 82.3597136925302	 17.6402863074698	-134.001043609125	-155.677121543474
 405.8	 81.9036443006215	 18.0963556993785	-132.676886808909	-154.476515341696
 406	 81.4344674395075	 18.5655325604925	-131.32908897443	-153.261028397292
 406.2	 80.9520265191245	 19.0479734808755	-129.957058541088	-152.030447484254
 406.4	 80.4561881741934	 19.5438118258066	-128.56019991633	-150.784565790328
 406.6	 79.9468452119863	 20.0531547880137	-127.137914595983	-149.523183862534
 406.8	 79.4239197282723	 20.5760802717276	-125.689602419043	-148.24611061287
 407	 78.8873663839161	 21.1126336160839	-124.214662971379	-146.953164384299
 407.2	 78.3371758312323	 21.6628241687677	-122.712497149154	-145.644174076566
 407.4	 77.7733782753972	 22.2266217246028	-121.182508893087	-144.318980330717
 407.6	 77.1960471519988	 22.8039528480012	-119.624107104832	-142.977436770422
 407.8	 76.6053028971858	 23.3946971028142	-118.036707756915	-141.619411297387
 408	 76.0013167818612	 23.9986832181388	-116.419736207602	-140.244787437167
 408.2	 75.3843147760315	 24.6156852239685	-114.772629731952	-138.853465730684
 408.4	 74.7545814037904	 25.2454185962097	-113.094840279908	-137.445365165624
 408.6	 74.1124635436128	 25.8875364563872	-111.385837471773	-136.02042464068
 408.8	 73.4583741227365	 26.5416258772635	-109.645111840531	-134.578604454346
 409	 72.7927956485628	 27.2072043514373	-107.872178329389	-133.119887808629
 409.2	 72.1162835143803	 27.8837164856197	-106.066580051413	-131.644282316665
 409.4	 71.4294690114688	 28.5705309885312	-104.227892316235	-130.151821501854
 409.6	 70.7330619750152	 29.2669380249848	-102.355726926443	-128.642566274722
 409.8	 70.0278529874728	 29.9721470125271	-100.449736743353	-127.116606372373
 410	 69.3147150602899	 30.6852849397101	-98.5096205183709	-125.574061744138
 410.2	 68.5946047135679	 31.4053952864321	-96.5351279819452	-124.015083865843
 410.4	 67.8685623734543	 32.1314376265457	-94.5260651772071	-122.43985696411
 410.6	 67.1377120091709	 32.8622879908292	-92.4823000196614	-120.84859913131
 410.8	 66.4032599357778	 33.5967400642223	-90.4037680577305	-119.241563311198
 411	 65.6664927152443	 34.3335072847557	-88.290478401488	-117.619038135004
 411.2	 64.9287740973154	 35.0712259026847	-86.1425197785815	-115.9813485878
 411.4	 64.1915409530888	 35.8084590469113	-83.9600666671344	-114.328856485412
 411.6	 63.4562981681666	 36.5437018318333	-81.7433854454149	-112.661960743007
 411.8	 62.7246124786184	 37.2753875213816	-79.4928404873833	-110.981097417745
 412	 61.9981052515892	 38.0018947484108	-77.2089001220586	-109.286739509689
 412.2	 61.2784442329331	 38.7215557670669	-74.892142363316	-107.579396507352
 412.4	 60.5673343062558	 39.4326656937442	-72.5432603054202	-105.859613666957
 412.6	 59.8665073307784	 40.1334926692217	-70.1630670690018	-104.1279710176
 412.8	 59.1777111487589	 40.8222888512412	-67.7525001725584	-102.385082088021
 413	 58.5026978761894	 41.4973021238106	-65.3126251967342	-100.631592354549
 413.2	 57.8432116123158	 42.1567883876842	-62.8446386031694	-98.868177413922
 413.4	 57.2009757234081	 42.7990242765918	-60.3498695673306	-97.0955408889803
 413.6	 56.5776798733646	 43.4223201266354	-57.8297806862494	-95.3144120796543
 413.8	 55.9749669873978	 44.0250330126022	-55.2859674280924	-93.5255433760282
 414	 55.394420344574	 44.605579655426	-52.7201562016551	-91.7297074545062
 414.2	 54.8375509998164	 45.1624490001837	-50.134200940578	-89.927694282094
 414.4	 54.3057857357508	 45.6942142642492	-47.5300781195908	-88.1203079574041
 414.6	 53.8004557392879	 46.1995442607122	-44.9098801483446	-86.3083634201453
 414.8	 53.3227861870767	 46.6772138129233	-42.275807121929	-84.4926830633834
 415	 52.8738869081878	 47.1261130918123	-39.6301569453709	-82.6740932847852
 415.2	 52.4547442719647	 47.5452557280353	-36.9753138909803	-80.8534210142146
 415.4	 52.0662144245827	 47.9337855754172	-34.3137356910319	-79.0314902554915
 415.6	 51.7090179702166	 48.2909820297834	-31.6479393120669	-77.2091186797648
 415.8	 51.3837361627742	 48.6162638372257	-28.9804855991835	-75.3871143068654
 416	 51.090808642881	 48.909191357119	-26.3139630169462	-73.5662723091612
 416.2	 50.8305327232365	 49.1694672767636	-23.6509707460623	-71.7473719699747
 416.4	 50.6030641946188	 49.3969358053813	-20.9941014198589	-69.9311738255278
 416.6	 50.4084195956525	 49.5915804043475	-18.3459238004921	-68.1184170158325
 416.8	 50.246479862822	 49.7535201371779	-15.7089657006902	-66.309816866008
 417	 50.1169952538434	 49.8830047461567	-13.0856974521802	-64.5060627152713
 417.2	 50.0195914179428	 49.9804085820574	-10.478516207044	-62.7078160065201
 417.4	 49.9537764712294	 50.0462235287708	-7.88973133367205	-60.9157086450118
 417.6	 49.9189489243701	 50.0810510756301	-5.32155113605597	-59.1303416303294
 417.8	 49.9144063032262	 50.0855936967739	-2.7760710855888	-57.352283961699
 418	 49.9393543008282	 50.0606456991718	-.255263710176507	-55.5820718128132
 418.2	 49.9929163007812	 50.0070836992187	 2.23902976134555	-53.8202079688267
 418.4	 50.0741431175051	 49.9258568824949	 4.70510594890733	-52.0671615149845
 418.6	 50.1820228071253	 49.8179771928747	 7.14140406009914	-50.3233677636846
 418.8	 50.3154904138229	 49.6845095861771	 9.5465088558585	-48.5892284044868
 419	 50.4734375294148	 49.5265624705853	 11.9191519182102	-46.8651118598022
 419.2	 50.6547215583371	 49.3452784416629	 14.2582113272573	-45.1513538276866
 419.4	 50.8581745954544	 49.1418254045457	 16.5627098801828	-43.4482579922521
 419.6	 51.0826118397294	 48.9173881602707	 18.8318120039096	-41.7560968817721
 419.8	 51.3268394822959	 48.6731605177041	 21.0648195254709	-40.0751128544484
 420	 51.586651235492	 48.413348764508	 23.193636435029	-38.4614389171937
 420.2	 51.8563731876946	 48.1436268123053	 25.1642151989902	-36.9618071324481
 420.4	 52.1397036848753	 47.8602963151247	 27.103708437635	-35.4717849945
 420.6	 52.4357532989473	 47.5642467010526	 29.0119419797459	-33.9914816334718
 420.8	 52.7436467790493	 47.2563532209507	 30.8888156214641	-32.5209894563774
 421	 53.0625258306395	 46.9374741693605	 32.7342983134797	-31.0603849828296
 421.2	 53.3915515483763	 46.6084484516238	 34.5484232887928	-29.6097296900883
 421.4	 53.7299065149117	 46.2700934850883	 36.3312831893352	-28.1690708607202
 421.6	 54.0767965803751	 45.9232034196249	 38.0830252422954	-26.7384424267871
 421.8	 54.4314523394132	 45.5685476605869	 39.8038465296537	-25.3178658051311
 422	 54.7931303242248	 45.2068696757752	 41.4939893873683	-23.9073507189379
 422.2	 55.1611139331192	 44.8388860668809	 43.1537369639373	-22.5068960014108
 422.4	 55.5347141147932	 44.4652858852068	 44.7834089618778	-21.1164903779581
 422.6	 55.9132698288199	 44.0867301711801	 46.3833575799989	-19.7361132238732
 422.8	 56.296148302793	 43.7038516972071	 47.9539636692524	-18.3657352950203
 423	 56.682745106268	 43.3172548937319	 49.4956331104762	-17.0053194295269
 423.2	 57.0724840610851	 42.927515938915	 51.0087934183976	-15.6548212189605
 423.4	 57.4648170069327	 42.5351829930675	 52.4938905729583	-14.314189647862
 423.6	 57.8592234401274	 42.1407765598726	 53.9513860761646	-12.9833677009093
 423.8	 58.2552100425937	 41.7447899574063	 55.3817542303477	-11.6622929373171
 424	 58.6523101169633	 41.3476898830367	 56.78547963184	-10.3508980323727
 424.2	 59.0500829425898	 40.9499170574102	 58.1630548725608	-9.0491112862988
 424.4	 59.448113066143	 40.551886933857	 59.5149784409039	-7.75685710083491
 424.6	 59.8460095392892	 40.1539904607107	 60.8417528124623	-6.47405642415509
 424.8	 60.2434051148466	 39.7565948851535	 62.1438827205958	-5.20062716488968
 425	 60.6399554116904	 39.3600445883096	 63.4218735964986	-3.93648457616905
 425.2	 61.0353380576337	 38.9646619423663	 64.6762301682927	-2.6815416107176
 425.4	 61.4292518184806	 38.5707481815194	 65.9074552086892	-1.43570924811792
 425.6	 61.8214157205045	 38.1785842794955	 67.1160484209025	-.198896795432574
 425.8	 62.2115681726947	 37.7884318273053	 68.3025054527521	 1.02898783757382
 426	 62.5994660942822	 37.4005339057179	 69.4673170292134	 2.24803788734522
 426.2	 62.9848840522788	 37.0151159477213	 70.6109681940618	 3.45834750828104
 426.4	 63.3676134130556	 36.6323865869444	 71.7339376516847	 4.66001156602702
 426.6	 63.747461511336	 36.252538488664	 72.8366972005945	 5.85312545101767
 426.8	 64.1242508393889	 35.875749160611	 73.919711250645	 7.0377849109971
 427	 64.4978182586837	 35.5021817413162	 74.9834364164436	 8.21408590126842
 427.2	 64.8680142357879	 35.1319857642121	 76.0283211799242	 9.38212445145113
 427.4	 65.2347021038668	 34.7652978961333	 77.0548056155197	 10.5419965475594
 427.6	 65.5977573507767	 34.4022426492233	 78.0633211718489	 11.6937980282671
 427.8	 65.9570669344065	 34.0429330655935	 79.0542905042582	 12.8376244942504
 428	 66.312528625645	 33.687471374355	 80.02812735301	 13.9735712295657
 428.2	 66.6640503790981	 33.3359496209018	 80.9852364623001	 15.1017331340554
 428.4	 67.0115497314683	 32.9884502685316	 81.9260135356865	 16.2222046658265
 428.6	 67.3549532273342	 32.6450467726657	 82.8508452238736	 17.335079792908
 428.8	 67.6941958719075	 32.3058041280925	 83.7601091411373	 18.4404519532235
 429	 68.0292206102284	 31.9707793897715	 84.6541739070077	 19.5384140220953
 429.2	 68.3599778321497	 31.6400221678503	 85.5333992101078	 20.6290582865078
 429.4	 68.6864249023836	 31.3135750976164	 86.398135891349	 21.712476425446
 429.6	 69.0085257148192	 30.9914742851808	 87.2487260439229	 22.7887594956432
 429.8	 69.3262502702707	 30.6737497297293	 88.0855031277786	 23.8579979221317
 430	 69.6395742767831	 30.3604257232169	 88.9087920964974	 24.9202814930381
 430.2	 69.9484787715974	 30.0515212284026	 89.7189095346658	 25.9756993580885
 430.4	 70.2529497638712	 29.7470502361288	 90.5161638040573	 27.0243400303581
 430.6	 70.5529778972408	 29.4470221027592	 91.3008551970808	 28.0662913908105
 430.8	 70.8485581313214	 29.1514418686786	 92.0732760961287	 29.1016406952298
 431	 71.1396894412495	 28.8603105587505	 92.8337111375943	 30.1304745831767
 431.2	 71.4263745343894	 28.5736254656106	 93.5824373794551	 31.1528790886252
 431.4	 71.7086195833441	 28.2913804166559	 94.3197244714471	 32.1689396519839
 431.6	 71.986433974438	 28.013566025562	 95.0458348269567	 33.1787411332198
 431.8	 72.2598300708609	 27.7401699291391	 95.7610237958598	 34.1823678258416
 432	 72.5288229896956	 27.4711770103044	 96.4655398376258	 35.1799034715184
 432.2	 72.7934303920774	 27.2065696079226	 97.1596246940858	 36.1714312751352
 432.4	 73.0536722857663	 26.9463277142337	 97.843513561338	 37.1570339201099
 432.6	 73.3095708394448	 26.6904291605552	 98.5174352603336	 38.13679358382
 432.8	 73.5611502080847	 26.4388497919153	 99.1816124057381	 39.1107919529959
 433	 73.8084363687563	 26.1915636312437	 99.8362615727292	 40.0791102389715
 433.2	 74.0514569662886	 25.9485430337114	 100.481593461431	 41.0418291926825
 433.4	 74.2902411682138	 25.7097588317862	 101.117813058736	 41.9990291193293
 433.6	 74.5248195284654	 25.4751804715346	 101.745119797296	 42.9507898926277
 433.8	 74.7552238593225	 25.2447761406775	 102.363707711518	 43.8971909685895
 434	 74.9814871111253	 25.0185128888746	 102.973765590406	 44.8383113987808
 434.2	 75.2036432593101	 24.7963567406899	 103.575477127142	 45.7742298430161
 434.4	 75.4217271983411	 24.5782728016589	 104.169021065313	 46.705024581461
 434.6	 75.6357746421389	 24.3642253578611	 104.754571341715	 47.6307735261165
 434.8	 75.8458220306302	 24.1541779693698	 105.332297225682	 48.551554231672
 435	 76.0519064420641	 23.9480935579359	 105.902363454919	 49.4674439057183
 435.2	 76.2540655107652	 23.7459344892348	 106.46493036782	 50.3785194183131
 435.4	 76.4523373500098	 23.5476626499902	 107.020154032262	 51.2848573109052
 435.6	 76.6467604797321	 23.3532395202679	 107.568186370901	 52.1865338046204
 435.8	 76.8373737564826	 23.1626262435174	 108.109175283008	 53.0836248078222
 436	 77.0241787984301	 22.9758212015699	 108.643264931053	 53.9762053595145
 436.2	 77.2072529811865	 22.7927470188135	 109.170594744846	 54.8643533681172
 436.4	 77.3866358552374	 22.6133641447626	 109.691301268018	 55.7481438454173
 436.6	 77.562367077933	 22.437632922067	 110.205517473669	 56.6276515129763
 436.8	 77.7344863650182	 22.2655136349818	 110.713372869358	 57.5029508069217
 437	 77.9030334453915	 22.0969665546085	 111.214993598901	 58.3741158822211
 437.2	 78.0688096191586	 21.9311903808415	 111.711735560876	 59.2433033192905
 437.4	 78.2324685819438	 21.7675314180562	 112.204712823383	 60.1123354931392
 437.6	 78.3926177364958	 21.6073822635042	 112.691724157744	 60.9774013499481
 437.8	 78.5492976451169	 21.4507023548831	 113.172885855373	 61.8385752432204
 438	 78.7025486878169	 21.2974513121831	 113.648311218731	 62.695931249143
 438.2	 78.8524110321877	 21.1475889678123	 114.118110648586	 63.5495431685777
 438.4	 78.9989246055791	 21.0010753944209	 114.582391728441	 64.3994845286759
 438.6	 79.1421290694594	 20.8578709305406	 115.041259306224	 65.2458285841339
 438.8	 79.2820637958449	 20.7179362041551	 115.494815573297	 66.0886483181149
 439	 79.4187678456927	 20.5812321543073	 115.943160140878	 66.9280164428563
 439.2	 79.5522799491585	 20.4477200508415	 116.386390113941	 67.7640053999827
 439.4	 79.6826384876227	 20.3173615123773	 116.824600162674	 68.5966873605435
 439.6	 79.809881477399	 20.190118522601	 117.257882591571	 69.4261342247943
 439.8	 79.9340465550405	 20.0659534449594	 117.686327406224	 70.252417621738
 440	 80.0551709641665	 19.9448290358335	 118.110022377897	 71.0756089084415
 440.2	 80.1732915437336	 19.8267084562664	 118.529053105938	 71.8957791691419
 440.4	 80.2884447176852	 19.7115552823148	 118.943503078121	 72.7129992141578
 440.6	 80.4006664859106	 19.5993335140893	 119.353453728962	 73.5273395786148
 440.8	 80.5099924164538	 19.4900075835462	 119.758984496084	 74.3388705209978
 441	 80.6164576389124	 19.3835423610876	 120.160172874707	 75.1476620215419
 441.2	 80.7200968389735	 19.2799031610265	 120.557094470305	 75.9537837804643
 441.4	 80.8209442540328	 19.1790557459672	 120.949823049511	 76.7573052160526
 441.6	 80.9190336698489	 19.080966330151	 121.338430589312	 77.5582954626091
 441.8	 81.0143984181878	 18.9856015818121	 121.722987324615	 78.3568233682596
 442	 81.1070713754113	 18.8929286245887	 122.103561794209	 79.1529574926295
 442.2	 81.1970849619713	 18.8029150380287	 122.480220885213	 79.9467661043902
 442.4	 81.2844711427696	 18.7155288572304	 122.853029876035	 80.7383171786781
 442.6	 81.3692614283473	 18.6307385716527	 123.222052477912	 81.5276783943877
 442.8	 81.4514868768685	 18.5485131231315	 123.587350875069	 82.314917131332
 443	 81.5311780968674	 18.4688219031326	 123.948985763555	 83.1001004672833
 443.2	 81.6083652507271	 18.3916347492729	 124.3070163888	 83.8832951748758
 443.4	 81.6830780588615	 18.3169219411385	 124.661500581939	 84.6645677183782
 443.6	 81.7553458045729	 18.2446541954271	 125.012494794943	 85.4439842503281
 443.8	 81.8251973395605	 18.1748026604395	 125.36005413461	 86.2216106080236
 444	 81.892661090055	 18.107338909945	 125.704232395449	 86.9975123098693
 444.2	 81.9577650635561	 18.0422349364439	 126.045082091506	 87.771754551567
 444.4	 82.0205368561532	 17.9794631438468	 126.382654487159	 88.5444022021462
 444.6	 82.0810036604071	 17.9189963395929	 126.716999626938	 89.3155197998263
 444.8	 82.1391922737751	 17.8608077262248	 127.048166364384	 90.0851715477032
 445	 82.1951291075609	 17.8048708924391	 127.376202390011	 90.8534213092499
 445.2	 82.2488401963725	 17.7511598036276	 127.701154258383	 91.6203326036253
 445.4	 82.3003512080721	 17.6996487919278	 128.023067414346	 92.3859686007751
 445.6	 82.3496874542039	 17.6503125457961	 128.341986218459	 93.150392116321
 445.8	 82.3968739008824	 17.6031260991176	 128.657953971636	 93.9136656062246
 446	 82.4419351801323	 17.5580648198677	 128.971012939058	 94.6758511612153
 446.2	 82.4848956016626	 17.5151043983373	 129.281204373351	 95.437010500969
 446.4	 82.5257791650661	 17.4742208349339	 129.588568537092	 96.1972049680291
 446.6	 82.564609572429	 17.435390427571	 129.893144724653	 96.9564955214566
 446.8	 82.6014102413435	 17.3985897586565	 130.194971283414	 97.7149427301941
 447	 82.6362043183086	 17.3637956816914	 130.494085634381	 98.4726067661358
 447.2	 82.6690146925105	 17.3309853074895	 130.790524292223	 99.2295473968884
 447.4	 82.6998640099719	 17.3001359900281	 131.084322884766	 99.9858239782092
 447.6	 82.72877468806	 17.27122531194	 131.375516171963	 100.74149544611
 447.8	 82.755768930343	 17.244231069657	 131.664138064366	 101.496620308616
 448	 82.7808687417849	 17.219131258215	 131.950221641132	 102.251256637159
 448.2	 82.8040959442691	 17.195904055731	 132.233799167572	 103.005462057605
 448.4	 82.8254721924397	 17.1745278075603	 132.514902112284	 103.75929374089
 448.6	 82.845018989852	 17.1549810101479	 132.793561163883	 104.512808393256
 448.8	 82.8627577054188	 17.1372422945812	 133.069806247349	 105.266062246085
 449	 82.8787095901436	 17.1212904098564	 133.343666540033	 106.019111045298
 449.2	 82.8928957941294	 17.1071042058706	 133.615170487313	 106.772010040331
 449.4	 82.9053373838495	 17.0946626161505	 133.88434581796	 107.524813972652
 449.6	 82.9160553596701	 17.08394464033	 134.151219559194	 108.27757706383
 449.8	 82.9250706736091	 17.0749293263909	 134.415818051495	 109.030353003133
 450	 82.93240424732	 17.06759575268	 134.678166963149	 109.783194934641
 450.2	 82.9380769902842	 17.0619230097158	 134.938291304583	 110.536155443883
 450.4	 82.9421098181963	 17.0578901818037	 135.196215442489	 111.28928654396
 450.6	 82.9445236715277	 17.0554763284723	 135.451963113767	 112.042639661183
